x,y
2800,0.0095000000795323666
2803.3333333333335,0.0095166667788156474
2806.6666666666665,0.0095333334910426993
2810,0.0095500002211721252
2813.3333333333335,0.0095666669759909735
2816.6666666666665,0.009583333764761448
2820,0.0096000006000861293
2823.3333333333335,0.0096166674990616936
2826.6666666666665,0.0096333344848125706
2830,0.0096500015885229457
2833.3333333333335,0.0096666688521204105
2836.6666666666665,0.0096833363318087375
2840,0.0097000041027032816
2843.3333333333335,0.0097166722648932505
2846.6666666666665,0.0097333409513440869
2850,0.0097500103381644495
2853.3333333333335,0.0097666806579012038
2856.6666666666665,0.0097833522166981286
2860,0.0098000254163671269
2863.3333333333335,0.0098167007826829265
2866.6666666666665,0.0098333790015335144
2870,0.009850060964950445
2873.3333333333335,0.0098667478295187561
2876.6666666666665,0.0098834410902411251
2880,0.0099001426736219401
2883.3333333333335,0.0099168550545637758
2886.6666666666665,0.0099335814026531438
2890,0.0099503257645776524
2893.3333333333335,0.0099670932907891651
2896.6666666666665,0.0099838905161348298
2900,0.010000725706048787
2903.3333333333335,0.010017609282062757
2906.6666666666665,0.010034554342883173
2910,0.010051577300126327
2913.3333333333335,0.010068698651028114
2916.6666666666665,0.010085943914075761
2920,0.010103344757563729
2923.3333333333335,0.010120940355565392
2926.6666666666665,0.010138779010736874
2930,0.010156920088716125
2933.3333333333335,0.010175436314619334
2936.6666666666665,0.010194416488218009
2940,0.010213968680728446
2943.3333333333335,0.010234223982657515
2946.6666666666665,0.010255340878688568
2950,0.010277510331984664
2953.3333333333335,0.01030096166631881
2956.6666666666665,0.010325969339852919
2960,0.010352860708871259
2963.3333333333335,0.010382024882974464
2966.6666666666665,0.010413922774750378
2970,0.010449098446303645
2973.3333333333335,0.010488191851747876
2976.6666666666665,0.010531953068304003
2980,0.010581258098436939
2983.3333333333335,0.010637126310912754
2986.6666666666665,0.010700739569179841
2990,0.010773463070494498
2993.3333333333335,0.010856867888187609
2996.6666666666665,0.010952755171932843
3000,0.011063181916448957
3003.3333333333335,0.011190488157499014
3006.6666666666665,0.011337325395248121
3010,0.011506685979116775
3013.3333333333335,0.011701933115563775
3016.6666666666665,0.011926831081366834
3020,0.012185575140858324
3023.3333333333335,0.01248282057747298
3026.6666666666665,0.0128237101594835
3030,0.013213899268916814
3033.3333333333335,0.013659577833713561
3036.6666666666665,0.014167488118937248
3040,0.014744937356314228
3043.3333333333335,0.015399804125957126
3046.6666666666665,0.016140537353402217
3050,0.016976146752845991
3053.3333333333335,0.017916183537552977
3056.6666666666665,0.018970710234641936
3060,0.020150258487477715
3063.3333333333335,0.021465773808043181
3066.6666666666665,0.022928546356813878
3070,0.024550126981036584
3073.3333333333335,0.026342227935383284
3076.6666666666665,0.028316607942220125
3080,0.030484941521578192
3083.3333333333335,0.032858672831522925
3086.6666666666665,0.035448854604828349
3090,0.038265973143064298
3093.3333333333335,0.041319760728391892
3096.6666666666665,0.04461899722907782
3100,0.048171303098113932
3103.3333333333335,0.05198292638530097
3106.6666666666665,0.056058526790557811
3110,0.060400960167994622
3113.3333333333335,0.065011067233884418
3116.6666666666665,0.069887470524290146
3120,0.075026383877046923
3123.3333333333335,0.080421438866022446
3126.6666666666665,0.086063532682007921
3130,0.091940701924534712
3133.3333333333335,0.098038026634661948
3136.6666666666665,0.10433756865487363
3140,0.11081834804578368
3143.3333333333335,0.11745636082057041
3146.6666666666665,0.12422464068029893
3150,0.13109336675312622
3153.3333333333335,0.13803001856793293
3156.6666666666665,0.14499957864151744
3160,0.1519647821444936
3163.3333333333335,0.15888641215376273
3166.6666666666665,0.16572363802050757
3170,0.17243439340548011
3173.3333333333335,0.17897578958270585
3176.6666666666665,0.18530455871386006
3180,0.19137752097344785
3183.3333333333335,0.19715206868367741
3186.6666666666665,0.20258666001984227
3190,0.20764131439182554
3193.3333333333335,0.21227810131163588
3196.6666666666665,0.21646161443337991
3200,0.22015942250907072
3203.3333333333335,0.22334248924485131
3206.6666666666665,0.22598555446620219
3210,0.22806746960105442
3213.3333333333335,0.22957148125511387
3216.6666666666665,0.23048545756801911
3220,0.23080205308179474
3223.3333333333335,0.23051880900035773
3226.6666666666665,0.22963818694342988
3230,0.22816753557074831
3233.3333333333335,0.22611899074228162
3236.6666666666665,0.22350931115615336
3240,0.22035965263765306
3243.3333333333335,0.21669528541106378
3246.6666666666665,0.21254525974440749
3250,0.20794202629221523
3253.3333333333335,0.20292101825347847
3256.6666666666665,0.19752020309589485
3260,0.19177961206310759
3263.3333333333335,0.18574085597352494
3266.6666666666665,0.17944663593721802
3270,0.17294025756601927
3273.3333333333335,0.16626515704035488
3276.6666666666665,0.15946444703764115
3280,0.15258049003771115
3283.3333333333335,0.14565450591945336
3286.6666666666665,0.13872622006990393
3290,0.13183355746320913
3293.3333333333335,0.12501238735211836
3296.6666666666665,0.11829632236726581
3300,0.11171657495503727
3303.3333333333335,0.10530187321503987
3306.6666666666665,0.099078437330478067
3310,0.093070016921564927
3313.3333333333335,0.087297988790600356
3316.666666666667,0.081781513659642299
3320,0.076537749615402717
3323.3333333333335,0.071582119054914128
3326.666666666667,0.066928624951428248
3330,0.062590211214173908
3333.3333333333335,0.058579160781414584
3336.666666666667,0.054907523851563202
3340,0.051587567317431138
3343.3333333333335,0.048632235030149656
3346.666666666667,0.046055607001501749
3350,0.043873344092227241
3353.3333333333335,0.042103103183479151
3356.666666666667,0.040764906362579977
3360,0.039881446365642087
3363.3333333333335,0.039478309519647745
3366.666666666667,0.039584096841319943
3370,0.0402304239157747
3373.3333333333335,0.041451780834035952
3376.666666666667,0.043285234949271084
3380,0.045769961636048344
3383.3333333333335,0.048946591697470759
3386.666666666667,0.052856368615944477
3390,0.057540114489130254
3393.3333333333335,0.063037010177664138
3396.666666666667,0.069383202791467924
3400,0.076610261959095566
3403.3333333333335,0.084743515086631943
3406.666666666667,0.093800300674696954
3410,0.10378818731681433
3413.3333333333335,0.11470321379388479
3416.666666666667,0.12652821222336283
3420,0.13923128102955401
3423.3333333333335,0.15276447710915578
3426.666666666667,0.16706279656531894
3430,0.1820435104524194
3433.3333333333335,0.19760591590718771
3436.666666666667,0.21363155377753767
3440,0.22998493149842342
3443.3333333333335,0.24651477477832581
3446.666666666667,0.263055814100772
3450,0.2794310927294657
3453.3333333333335,0.29545476259591441
3456.666666666667,0.31093531402252678
3460,0.32567916564253546
3463.3333333333335,0.33949452309500439
3466.666666666667,0.35219540004288746
3470,0.36360568364253443
3473.3333333333335,0.37356311950195831
3476.666666666667,0.38192308893258659
3480,0.38856205422791129
3483.3333333333335,0.39338055584167902
3486.666666666667,0.39630565847207599
3490,0.39729276070911479
3493.3333333333335,0.39632670435111217
3496.666666666667,0.39342214381781648
3500,0.3886231621997685
3503.3333333333335,0.38200214720449582
3506.666666666667,0.37365796637515936
3510,0.36371350528494689
3513.3333333333335,0.35231265386854149
3516.666666666667,0.33961684371559725
3520,0.32580125230166229
3523.3333333333335,0.31105079829235444
3526.666666666667,0.29555605501109378
3530,0.27950920695909753
3533.3333333333335,0.26310016722213203
3536.666666666667,0.24651296222178679
3540,0.22992247528802326
3543.3333333333335,0.21349162280283793
3546.666666666667,0.19736901713605989
3550,0.18168715023788029
3553.3333333333335,0.16656111151907299
3556.666666666667,0.15208783441568413
3560,0.13834584856231763
3563.3333333333335,0.12539549940279598
3566.666666666667,0.11327958479725181
3570,0.10202434901284796
3573.3333333333335,0.091640768509182277
3576.666666666667,0.082126061083709734
3580,0.073465350019148459
3583.3333333333335,0.065633417548874681
3586.666666666667,0.058596486815495556
3590,0.052313978074448708
3593.3333333333335,0.046740192696401686
3596.666666666667,0.041825887061054744
3600,0.037519707251273911
3603.3333333333335,0.033769464139703047
3606.666666666667,0.030523236662675382
3610,0.027730298523261067
3613.3333333333335,0.025341870057415845
3616.666666666667,0.023311702409822388
3620,0.021596505444150031
3623.3333333333335,0.020156233962485337
3626.666666666667,0.018954248887974996
3630,0.017957371170335124
3633.3333333333335,0.017135846430819637
3636.666666666667,0.016463237913220879
3640,0.015916264298849844
3643.3333333333335,0.015474597522510711
3646.666666666667,0.015120634030528657
3650,0.014839251074084132
3653.3333333333335,0.014617557737119867
3656.666666666667,0.014444648544320562
3660,0.014311365747916206
3663.3333333333335,0.014210074800281473
3666.666666666667,0.014134456113230645
3670,0.014079315000268735
3673.3333333333335,0.014040410698101333
3676.666666666667,0.014014304561825636
3680,0.013998226910540821
3683.3333333333335,0.013989961547828699
3686.666666666667,0.0139877466730197
3690,0.013990190711617993
3693.3333333333335,0.013996201504215164
3696.666666666667,0.014004927281457304
3700,0.014015707898912566
3703.3333333333335,0.014028034893182353
3706.666666666667,0.014041519035065765
3710,0.014055864185370019
3713.3333333333335,0.014070846394863983
3716.666666666667,0.014086297324934523
3720,0.014102091194716846
3723.3333333333335,0.0141181345804693
3726.666666666667,0.014134358501735651
3730,0.014150712325425911
3733.3333333333335,0.014167159103191346
3736.666666666667,0.014183672029784062
3740,0.014200231771275204
3743.3333333333335,0.014216824463088732
3746.666666666667,0.014233440219935077
3750,0.014250072034071817
3753.3333333333335,0.01426671496601109
3756.666666666667,0.014283365553893333
3760,0.014300021385209499
3763.3333333333335,0.014316680788221309
3766.666666666667,0.014333342611028293
3770,0.014350006064377729
3773.3333333333335,0.014366670610522003
3776.666666666667,0.014383335885119534
3780,0.014400001642692103
3783.3333333333335,0.014416667718765725
3786.666666666667,0.014433334003751342
3790,0.014450000425033624
3793.3333333333335,0.014466666934762139
3796.666666666667,0.014483333501579142
3800,0.014500000105047954
