x,y
1100,12.750000000000471
1102,12.78000000000077
1104,12.810000000001253
1106,12.84000000000203
1108,12.870000000003278
1110,12.900000000005271
1112,12.930000000008443
1114,12.960000000013473
1116,12.990000000021412
1118,13.020000000033898
1120,13.050000000053453
1122,13.080000000083956
1124,13.110000000131349
1126,13.140000000204685
1128,13.17000000031771
1130,13.200000000491208
1132,13.230000000756462
1134,13.260000001160369
1136,13.290000001772935
1138,13.320000002698217
1140,13.350000004090237
1142,13.380000006175999
1144,13.410000009288677
1146,13.440000013915148
1148,13.47000002076391
1150,13.500000030861573
1152,13.53000004568929
1154,13.560000067374917
1156,13.590000098962244
1158,13.620000144786584
1160,13.650000210996168
1162,13.680000306272705
1164,13.710000442822313
1166,13.740000637731939
1168,13.770000914817185
1170,13.800001307127452
1172,13.830001860325892
1174,13.860002637227518
1176,13.89000372386254
1178,13.920005237537643
1180,13.950007337500557
1182,13.980010238978025
1184,14.010014231561319
1186,14.040019703163431
1188,14.070027171076475
1190,14.100037322025367
1192,14.13005106355379
1194,14.16006958960044
1196,14.190094463737195
1198,14.220127724254757
1200,14.250172016103278
1202,14.280230755630635
1204,14.310308335111431
1206,14.340410375223083
1208,14.370544034892783
1210,14.400718389294607
1212,14.430944888193824
1214,14.461237908278079
1216,14.491615414532264
1218,14.522099747039524
1220,14.55271855074195
1222,14.583505866570512
1224,14.614503402834538
1226,14.645762005708235
1228,14.677343346909382
1230,14.709321845062471
1232,14.741786834593253
1234,14.7748449921268
1236,14.808623025072205
1238,14.84327062020124
1240,14.878963641417375
1242,14.915907555453943
1244,14.954341051877485
1246,14.99453980951442
1248,15.03682034536215
1250,15.081543864386999
1252,15.129120009666599
1254,15.180010392547777
1256,15.234731762446607
1258,15.293858656340019
1260,15.358025349753303
1262,15.427926915127239
1264,15.504319180953239
1266,15.588017377174394
1268,15.679893250282094
1270,15.780870436498855
1272,15.891917894564612
1274,16.014041221935521
1276,16.148271710452068
1278,16.295653040244297
1280,16.457225563966876
1282,16.634008197121883
1284,16.826978003476881
1286,17.037047646140433
1288,17.265040962888829
1290,17.511667016474416
1292,17.777493063997056
1294,18.062916980638992
1296,18.368139758435799
1298,18.693138776321707
1300,19.037642599390516
1302,19.401108109174125
1304,19.782700789047713
1306,20.181278986380129
1308,20.595382943183377
1310,21.023229328056129
1312,21.462711913464187
1314,21.911408924312518
1316,22.3665974380385
1318,22.825275046073561
1320,23.284188795714911
1322,23.739871225623659
1324,24.188683093741368
1326,24.626862180620108
1328,25.050577341757894
1330,25.455986787517709
1332,25.839299396469322
1334,26.196837724946974
1336,26.52510126886397
1338,26.82082846881789
1340,27.0810559302709
1342,27.303173359436919
1344,27.484972792954508
1346,27.624690824058465
1348,27.721042696462128
1350,27.773247344395816
1352,27.78104269646213
1354,27.744690824058463
1356,27.664972792954508
1358,27.543173359436921
1360,27.381055930270897
1362,27.180828468817889
1364,26.945101268863972
1366,26.676837724946971
1368,26.379299396469321
1370,26.05598678751771
1372,25.71057734175789
1374,25.346862180620107
1376,24.968683093741369
1378,24.579871225623663
1380,24.18418879571491
1382,23.785275046073561
1384,23.386597438038503
1386,22.991408924312516
1388,22.602711913464187
1390,22.223229328056128
1392,21.855382943183375
1394,21.501278986380129
1396,21.162700789047715
1398,20.841108109174122
1400,20.537642599390516
1402,20.253138776321709
1404,19.988139758435796
1406,19.742916980638995
1408,19.517493063997065
1410,19.311667016474434
1412,19.125040962888871
1414,18.957047646140527
1416,18.806978003477088
1418,18.674008197122333
1420,18.557225563967858
1422,18.455653040246407
1424,18.368271710456558
1426,18.29404122194499
1428,18.231917894584392
1430,18.180870436539763
1432,18.139893250365905
1434,18.108017377344456
1436,18.084319181295001
1438,18.067926915807487
1440,18.058025351094297
1442,18.05385865895822
1444,18.054731767509516
1446,18.060010402244295
1448,18.069120028059505
1450,18.081543898941462
1452,18.096820409657091
1454,18.114539928000831
1456,18.134341268139032
1458,18.155907946393032
1460,18.178964341352689
1462,18.203271861355468
1464,18.228625204851998
1466,18.254848783691937
1468,18.281793366552229
1470,18.309332990250596
1472,18.337362181248519
1474,18.365793529060632
1476,18.394555658506349
1478,18.423591659895948
1480,18.452858056648623
1482,18.482324419953475
1484,18.511973781414092
1486,18.54180404854533
1488,18.571830695485872
1490,18.602091082501534
1492,18.63265085156123
1494,18.663612948199706
1496,18.69512992593183
1498,18.727420288877035
1500,18.76078970677867
1502,18.795657975056496
1504,18.832592566572991
1506,18.872349502457027
1508,18.915922024427793
1510,18.964597147738541
1512,19.020019582419668
1514,19.08426170957733
1516,19.159897282367567
1518,19.25007530286295
1520,19.358589150006118
1522,19.489934578545551
1524,19.64934879098535
1526,19.842821559175434
1528,20.07706852738259
1530,20.35945657446355
1532,20.697871662785392
1534,21.100521148811339
1536,21.575665217787744
1538,22.131275994064353
1540,22.774627918694623
1542,23.51182899042977
1544,24.347309099051255
1546,25.283288458287885
1548,26.319255461086193
1550,27.451488441350961
1552,28.672659120625632
1554,29.971556288292518
1556,31.332965993034318
1558,32.737738918429102
1560,34.16306667699736
1562,35.582976823677001
1564,36.969042149702965
1566,38.291284278537987
1568,39.519236001112503
1570,40.62311254924596
1572,41.575030503517581
1574,42.350205502537847
1576,42.928057303988744
1578,43.293153563735828
1580,43.435931967544732
1582,43.353153563685765
1584,43.048057303878807
1586,42.530205502346632
1588,41.815030503208312
1590,40.923112548760024
1592,39.879236000359313
1594,38.711284277379647
1596,37.44904214793128
1598,36.122976820979545
1600,34.763066672907598
1602,33.397738912253388
1604,32.052965983745814
1606,30.751556274377482
1608,29.512659099861786
1610,28.351488410489427
1612,27.279255415396925
1614,26.303288390912982
1616,25.427309000089014
1618,24.651828845643191
1620,23.974627707698456
1622,23.391275687791644
1624,22.895664774965432
1626,22.480520511079398
1628,22.137870747968208
1630,21.859455267336099
1632,21.637066667056697
1634,21.46281892194791
1636,21.329345067122812
1638,21.22992934100791
1640,21.158581812505563
1642,21.110065063884925
1644,21.079883050806249
1646,21.064242006413899
1648,21.059992411343192
1650,21.064559825713175
1652,21.075870960874006
1654,21.092279912856586
1656,21.112498102835797
1658,21.13553025080174
1660,21.160617690675391
1662,21.187189533246404
1664,21.214821590820399
1666,21.243202572976621
1668,21.272106816668447
1670,21.301372693206929
1672,21.330885807292045
1674,21.360566140267252
1676,21.390358366881827
1678,21.420224672913953
1680,21.450139505906673
1682,21.480085793325433
1684,21.510052255671809
1686,21.540031523352397
1688,21.570018834339141
1690,21.600011145188127
1692,21.630006531958976
1694,21.660003791565138
1696,21.690002179779793
1698,21.720001241154225
1700,21.750000699935317
1702,21.780000390939087
1704,21.810000216261546
1706,21.840000118486412
1708,21.870000064294942
1710,21.900000034554459
1712,21.93000001839291
1714,21.960000009696518
1716,21.990000005062907
1718,22.020000002618204
1720,22.050000001340994
1722,22.080000000680247
1724,22.110000000341763
1726,22.140000000170062
1728,22.170000000083814
1730,22.200000000040909
1732,22.230000000019778
1734,22.260000000009466
1736,22.29000000000449
1738,22.320000000002111
1740,22.350000000000982
1742,22.38000000000045
1744,22.410000000000206
1746,22.44000000000009
1748,22.470000000000041
1750,22.500000000000018
1752,22.530000000000008
1754,22.560000000000002
1756,22.59
1758,22.620000000000001
1760,22.649999999999999
1762,22.68
1764,22.710000000000001
1766,22.740000000000002
1768,22.77
1770,22.800000000000001
1772,22.829999999999998
1774,22.859999999999999
1776,22.890000000000001
1778,22.920000000000002
1780,22.949999999999999
1782,22.98
1784,23.009999999999998
1786,23.039999999999999
1788,23.07
1790,23.100000000000001
1792,23.129999999999999
1794,23.16
1796,23.189999999999998
1798,23.219999999999999
1800,23.25
